Time[ps]      Etot[eV]     Epot[eV]     Ekin[eV]    T[K]
0.0000           7.9878       5.4819       2.5059   359.0
0.0010           7.9448       5.4743       2.4704   353.9
0.0020           7.9403       5.4507       2.4896   356.7
0.0030           7.9355       5.4092       2.5263   361.9
0.0040           7.9305       5.3472       2.5833   370.1
0.0050           7.9252       5.2612       2.6640   381.7
0.0060           7.9197       5.1475       2.7721   397.2
0.0070           7.9140       5.0021       2.9119   417.2
0.0080           7.9082       4.8210       3.0872   442.3
0.0090           7.9018       4.6007       3.3011   472.9
0.0100           7.8949       4.3383       3.5566   509.5
0.0110           7.8873       4.0316       3.8557   552.4
0.0120           7.8792       3.6795       4.1997   601.7
0.0130           7.8705       3.2822       4.5883   657.4
0.0140           7.8606       2.8413       5.0193   719.1
0.0150           7.8491       2.3604       5.4887   786.3
0.0160           7.8370       1.8451       5.9919   858.4
0.0170           7.8235       1.3024       6.5210   934.2
0.0180           7.8090       0.7413       7.0677  1012.6
0.0190           7.7931       0.1715       7.6216  1091.9
0.0200           7.7763      -0.3965       8.1727  1170.9
0.0210           7.7584      -0.9522       8.7106  1247.9
0.0220           7.7398      -1.4863       9.2261  1321.8
0.0230           7.7202      -1.9912       9.7114  1391.3
0.0240           7.6998      -2.4619      10.1617  1455.8
0.0250           7.6799      -2.8963      10.5762  1515.2
0.0260           7.6585      -3.2951      10.9536  1569.3
0.0270           7.6368      -3.6603      11.2971  1618.5
0.0280           7.6140      -3.9952      11.6091  1663.2
0.0290           7.5900      -4.3019      11.8919  1703.7
0.0300           7.5661      -4.5810      12.1471  1740.3
0.0310           7.5413      -4.8305      12.3718  1772.5
0.0320           7.5156      -5.0462      12.5618  1799.7
0.0330           7.4900      -5.2228      12.7128  1821.3
0.0340           7.4647      -5.3560      12.8207  1836.8
0.0350           7.4393      -5.4447      12.8840  1845.8
0.0360           7.4138      -5.4914      12.9052  1848.9
0.0370           7.3881      -5.5012      12.8894  1846.6
0.0380           7.3631      -5.4797      12.8428  1839.9
0.0390           7.3382      -5.4306      12.7688  1829.3
0.0400           7.3130      -5.3554      12.6684  1815.0
0.0410           7.2883      -5.2537      12.5420  1796.8
0.0420           7.2637      -5.1255      12.3891  1774.9
0.0430           7.2398      -4.9732      12.2130  1749.7
0.0440           7.2176      -4.8033      12.0209  1722.2
0.0450           7.1947      -4.6253      11.8199  1693.4
0.0460           7.1727      -4.4491      11.6218  1665.0
0.0470           7.1510      -4.2825      11.4334  1638.0
0.0480           7.1289      -4.1289      11.2579  1612.9
0.0490           7.1074      -3.9880      11.0953  1589.6
0.0500           7.0856      -3.8564      10.9420  1567.6
0.0510           7.0642      -3.7304      10.7947  1546.5
0.0520           7.0427      -3.6065      10.6492  1525.7
0.0530           7.0220      -3.4815      10.5035  1504.8
0.0540           7.0016      -3.3533      10.3549  1483.5
0.0550           6.9819      -3.2206      10.2025  1461.7
0.0560           6.9627      -3.0846      10.0473  1439.4
0.0570           6.9439      -2.9497       9.8937  1417.4
0.0580           6.9255      -2.8221       9.7475  1396.5
0.0590           6.9068      -2.7086       9.6154  1377.6
0.0600           6.8889      -2.6153       9.5042  1361.6
0.0610           6.8709      -2.5465       9.4174  1349.2
0.0620           6.8528      -2.5043       9.3571  1340.6
0.0630           6.8348      -2.4884       9.3231  1335.7
0.0640           6.8159      -2.4958       9.3117  1334.0
0.0650           6.7970      -2.5213       9.3182  1335.0
0.0660           6.7778      -2.5582       9.3359  1337.5
0.0670           6.7595      -2.6008       9.3603  1341.0
0.0680           6.7411      -2.6460       9.3871  1344.8
0.0690           6.7236      -2.6943       9.4179  1349.3
0.0700           6.7057      -2.7495       9.4552  1354.6
0.0710           6.6874      -2.8172       9.5045  1361.7
0.0720           6.6684      -2.9029       9.5712  1371.2
0.0730           6.6495      -3.0100       9.6595  1383.9
0.0740           6.6298      -3.1388       9.7686  1399.5
0.0750           6.6096      -3.2856       9.8952  1417.6
0.0760           6.5888      -3.4431      10.0319  1437.2
0.0770           6.5682      -3.6019      10.1701  1457.0
0.0780           6.5471      -3.7513      10.2984  1475.4
0.0790           6.5258      -3.8813      10.4072  1491.0
0.0800           6.5044      -3.9829      10.4873  1502.5
0.0810           6.4828      -4.0484      10.5312  1508.8
0.0820           6.4622      -4.0722      10.5344  1509.2
0.0830           6.4415      -4.0517      10.4932  1503.3
0.0840           6.4216      -3.9898      10.4114  1491.6
0.0850           6.4026      -3.8956      10.2982  1475.4
0.0860           6.3842      -3.7848      10.1690  1456.9
0.0870           6.3661      -3.6768      10.0429  1438.8
0.0880           6.3484      -3.5914       9.9398  1424.0
0.0890           6.3302      -3.5458       9.8760  1414.9
0.0900           6.3112      -3.5525       9.8637  1413.1
0.0910           6.2915      -3.6178       9.9093  1419.7
0.0920           6.2712      -3.7415      10.0128  1434.5
0.0930           6.2506      -3.9169      10.1674  1456.6
0.0940           6.2292      -4.1308      10.3600  1484.2
0.0950           6.2063      -4.3662      10.5725  1514.7
0.0960           6.1833      -4.6045      10.7878  1545.5
0.0970           6.1602      -4.8283      10.9885  1574.3
0.0980           6.1374      -5.0228      11.1603  1598.9
0.0990           6.1144      -5.1767      11.2912  1617.6
0.1000           6.0912      -5.2814      11.3726  1629.3
0.1010           6.0691      -5.3315      11.4006  1633.3
0.1020           6.0468      -5.3251      11.3719  1629.2
0.1030           6.0254      -5.2649      11.2903  1617.5
0.1040           6.0046      -5.1588      11.1635  1599.3
0.1050           5.9844      -5.0195      11.0039  1576.5
0.1060           5.9645      -4.8617      10.8262  1551.0
0.1070           5.9450      -4.7000      10.6450  1525.1
0.1080           5.9255      -4.5463      10.4718  1500.3
0.1090           5.9054      -4.4085      10.3139  1477.6
0.1100           5.8854      -4.2897      10.1751  1457.7
0.1110           5.8654      -4.1891      10.0545  1440.5
0.1120           5.8455      -4.1030       9.9485  1425.3
0.1130           5.8255      -4.0265       9.8520  1411.5
0.1140           5.8062      -3.9562       9.7623  1398.6
0.1150           5.7872      -3.8909       9.6781  1386.5
0.1160           5.7689      -3.8329       9.6018  1375.6
0.1170           5.7501      -3.7866       9.5367  1366.3
0.1180           5.7316      -3.7566       9.4882  1359.3
0.1190           5.7125      -3.7451       9.4576  1355.0
0.1200           5.6938      -3.7497       9.4435  1352.9
0.1210           5.6741      -3.7637       9.4378  1352.1
0.1220           5.6544      -3.7790       9.4334  1351.5
0.1230           5.6356      -3.7892       9.4248  1350.3
0.1240           5.6173      -3.7923       9.4096  1348.1
0.1250           5.5988      -3.7904       9.3891  1345.1
0.1260           5.5802      -3.7866       9.3667  1341.9
0.1270           5.5618      -3.7832       9.3449  1338.8
0.1280           5.5434      -3.7798       9.3232  1335.7
0.1290           5.5247      -3.7729       9.2976  1332.0
0.1300           5.5060      -3.7569       9.2629  1327.1
0.1310           5.4880      -3.7259       9.2140  1320.0
0.1320           5.4706      -3.6756       9.1462  1310.3
0.1330           5.4531      -3.6051       9.0582  1297.7
0.1340           5.4361      -3.5175       8.9536  1282.7
0.1350           5.4191      -3.4185       8.8376  1266.1
0.1360           5.4028      -3.3150       8.7178  1249.0
0.1370           5.3865      -3.2132       8.5997  1232.0
0.1380           5.3703      -3.1174       8.4877  1216.0
0.1390           5.3544      -3.0308       8.3852  1201.3
0.1400           5.3384      -2.9557       8.2940  1188.2
0.1410           5.3223      -2.8947       8.2170  1177.2
0.1420           5.3059      -2.8510       8.1569  1168.6
0.1430           5.2900      -2.8283       8.1182  1163.1
0.1440           5.2745      -2.8298       8.1044  1161.1
0.1450           5.2587      -2.8584       8.1171  1162.9
0.1460           5.2429      -2.9155       8.1584  1168.8
0.1470           5.2264      -3.0016       8.2280  1178.8
0.1480           5.2097      -3.1163       8.3260  1192.8
0.1490           5.1924      -3.2584       8.4508  1210.7
0.1500           5.1748      -3.4258       8.6006  1232.2
0.1510           5.1566      -3.6151       8.7717  1256.7
0.1520           5.1382      -3.8214       8.9596  1283.6
0.1530           5.1188      -4.0380       9.1569  1311.9
0.1540           5.0995      -4.2563       9.3559  1340.4
0.1550           5.0793      -4.4658       9.5451  1367.5
0.1560           5.0593      -4.6554       9.7147  1391.8
0.1570           5.0388      -4.8145       9.8533  1411.6
0.1580           5.0185      -4.9349       9.9534  1426.0
0.1590           4.9991      -5.0117      10.0108  1434.2
0.1600           4.9794      -5.0444      10.0239  1436.1
0.1610           4.9604      -5.0361       9.9964  1432.1
0.1620           4.9418      -4.9927       9.9345  1423.3
0.1630           4.9227      -4.9229       9.8456  1410.5
0.1640           4.9049      -4.8372       9.7421  1395.7
0.1650           4.8875      -4.7464       9.6340  1380.2
0.1660           4.8696      -4.6605       9.5301  1365.3
0.1670           4.8520      -4.5873       9.4394  1352.3
0.1680           4.8340      -4.5322       9.3662  1341.9
0.1690           4.8158      -4.4977       9.3135  1334.3
0.1700           4.7976      -4.4850       9.2826  1329.9
0.1710           4.7792      -4.4938       9.2730  1328.5
0.1720           4.7608      -4.5231       9.2840  1330.1
0.1730           4.7423      -4.5709       9.3132  1334.3
0.1740           4.7238      -4.6330       9.3568  1340.5
0.1750           4.7048      -4.7030       9.4078  1347.8
0.1760           4.6855      -4.7719       9.4574  1354.9
0.1770           4.6662      -4.8289       9.4951  1360.3
0.1780           4.6474      -4.8645       9.5120  1362.7
0.1790           4.6290      -4.8729       9.5019  1361.3
0.1800           4.6107      -4.8534       9.4641  1355.9
0.1810           4.5929      -4.8108       9.4037  1347.2
0.1820           4.5755      -4.7528       9.3283  1336.4
0.1830           4.5584      -4.6876       9.2460  1324.6
0.1840           4.5410      -4.6225       9.1635  1312.8
0.1850           4.5234      -4.5626       9.0860  1301.7
0.1860           4.5060      -4.5114       9.0173  1291.9
0.1870           4.4886      -4.4707       8.9593  1283.6
0.1880           4.4716      -4.4419       8.9136  1277.0
0.1890           4.4542      -4.4259       8.8800  1272.2
0.1900           4.4363      -4.4224       8.8587  1269.2
0.1910           4.4179      -4.4298       8.8477  1267.6
0.1920           4.3994      -4.4444       8.8439  1267.0
0.1930           4.3814      -4.4615       8.8429  1266.9
0.1940           4.3635      -4.4768       8.8403  1266.5
0.1950           4.3460      -4.4884       8.8343  1265.7
0.1960           4.3286      -4.4968       8.8254  1264.4
0.1970           4.3122      -4.5052       8.8174  1263.2
0.1980           4.2951      -4.5176       8.8127  1262.6
0.1990           4.2777      -4.5375       8.8153  1262.9
0.2000           4.2601      -4.5659       8.8260  1264.5
0.2010           4.2422      -4.6005       8.8427  1266.9
0.2020           4.2239      -4.6361       8.8600  1269.3
0.2030           4.2065      -4.6652       8.8716  1271.0
0.2040           4.1885      -4.6802       8.8687  1270.6
0.2050           4.1708      -4.6752       8.8460  1267.3
0.2060           4.1536      -4.6466       8.8002  1260.8
0.2070           4.1368      -4.5940       8.7308  1250.8
0.2080           4.1201      -4.5188       8.6390  1237.7
0.2090           4.1034      -4.4240       8.5274  1221.7
0.2100           4.0877      -4.3135       8.4013  1203.6
0.2110           4.0721      -4.1924       8.2645  1184.0
0.2120           4.0568      -4.0666       8.1233  1163.8
0.2130           4.0416      -3.9432       7.9848  1144.0
0.2140           4.0262      -3.8301       7.8563  1125.5
0.2150           4.0116      -3.7347       7.7463  1109.8
0.2160           3.9969      -3.6637       7.6606  1097.5
0.2170           3.9823      -3.6222       7.6045  1089.5
0.2180           3.9675      -3.6129       7.5805  1086.0
0.2190           3.9522      -3.6364       7.5886  1087.2
0.2200           3.9371      -3.6914       7.6285  1092.9
0.2210           3.9213      -3.7751       7.6964  1102.6
0.2220           3.9055      -3.8840       7.7895  1116.0
0.2230           3.8892      -4.0140       7.9031  1132.3
0.2240           3.8727      -4.1607       8.0334  1150.9
0.2250           3.8565      -4.3192       8.1758  1171.3
0.2260           3.8396      -4.4843       8.3240  1192.5
0.2270           3.8220      -4.6497       8.4717  1213.7
0.2280           3.8045      -4.8084       8.6129  1233.9
0.2290           3.7864      -4.9526       8.7390  1252.0
0.2300           3.7682      -5.0740       8.8422  1266.8
0.2310           3.7502      -5.1647       8.9149  1277.2
0.2320           3.7321      -5.2179       8.9501  1282.2
0.2330           3.7143      -5.2291       8.9434  1281.3
0.2340           3.6968      -5.1970       8.8938  1274.2
0.2350           3.6802      -5.1244       8.8045  1261.4
0.2360           3.6641      -5.0188       8.6829  1244.0
0.2370           3.6484      -4.8919       8.5403  1223.5
0.2380           3.6330      -4.7585       8.3915  1202.2
0.2390           3.6177      -4.6343       8.2520  1182.2
0.2400           3.6025      -4.5341       8.1366  1165.7
0.2410           3.5873      -4.4697       8.0570  1154.3
0.2420           3.5710      -4.4484       8.0194  1148.9
0.2430           3.5551      -4.4723       8.0274  1150.1
0.2440           3.5388      -4.5376       8.0763  1157.1
0.2450           3.5222      -4.6355       8.1577  1168.7
0.2460           3.5050      -4.7542       8.2592  1183.3
0.2470           3.4875      -4.8812       8.3687  1198.9
0.2480           3.4699      -5.0041       8.4740  1214.0
0.2490           3.4524      -5.1122       8.5646  1227.0
0.2500           3.4343      -5.1962       8.6305  1236.5
0.2510           3.4167      -5.2488       8.6655  1241.5
0.2520           3.3991      -5.2649       8.6640  1241.3
0.2530           3.3821      -5.2428       8.6249  1235.7
0.2540           3.3655      -5.1844       8.5498  1224.9
0.2550           3.3493      -5.0954       8.4447  1209.8
0.2560           3.3336      -4.9846       8.3182  1191.7
0.2570           3.3181      -4.8620       8.1802  1171.9
0.2580           3.3029      -4.7379       8.0408  1152.0
0.2590           3.2881      -4.6210       7.9091  1133.1
0.2600           3.2732      -4.5185       7.7916  1116.3
0.2610           3.2581      -4.4354       7.6935  1102.2
0.2620           3.2432      -4.3744       7.6176  1091.3
0.2630           3.2285      -4.3360       7.5645  1083.7
0.2640           3.2138      -4.3189       7.5326  1079.2
0.2650           3.1986      -4.3202       7.5188  1077.2
0.2660           3.1835      -4.3364       7.5199  1077.3
0.2670           3.1686      -4.3636       7.5321  1079.1
0.2680           3.1535      -4.3977       7.5512  1081.8
0.2690           3.1388      -4.4353       7.5740  1085.1
0.2700           3.1237      -4.4739       7.5976  1088.5
0.2710           3.1086      -4.5118       7.6204  1091.7
0.2720           3.0931      -4.5480       7.6411  1094.7
0.2730           3.0781      -4.5815       7.6596  1097.4
0.2740           3.0629      -4.6113       7.6742  1099.5
0.2750           3.0477      -4.6359       7.6837  1100.8
0.2760           3.0325      -4.6538       7.6863  1101.2
0.2770           3.0172      -4.6639       7.6811  1100.4
0.2780           3.0022      -4.6660       7.6682  1098.6
0.2790           2.9865      -4.6600       7.6466  1095.5
0.2800           2.9716      -4.6466       7.6182  1091.4
0.2810           2.9569      -4.6269       7.5838  1086.5
0.2820           2.9425      -4.6025       7.5450  1080.9
0.2830           2.9277      -4.5755       7.5032  1074.9
0.2840           2.9132      -4.5481       7.4614  1069.0
0.2850           2.8991      -4.5231       7.4222  1063.3
0.2860           2.8851      -4.5032       7.3884  1058.5
0.2870           2.8711      -4.4914       7.3625  1054.8
0.2880           2.8568      -4.4896       7.3464  1052.5
0.2890           2.8427      -4.4997       7.3424  1051.9
0.2900           2.8286      -4.5228       7.3514  1053.2
0.2910           2.8144      -4.5596       7.3741  1056.5
0.2920           2.8000      -4.6103       7.4103  1061.6
0.2930           2.7857      -4.6744       7.4600  1068.8
0.2940           2.7708      -4.7513       7.5221  1077.7
0.2950           2.7557      -4.8400       7.5958  1088.2
0.2960           2.7406      -4.9393       7.6799  1100.3
0.2970           2.7250      -5.0470       7.7720  1113.5
0.2980           2.7091      -5.1605       7.8697  1127.5
0.2990           2.6931      -5.2760       7.9691  1141.7
0.3000           2.6767      -5.3886       8.0653  1155.5
0.3010           2.6605      -5.4924       8.1529  1168.0
0.3020           2.6441      -5.5807       8.2248  1178.3
0.3030           2.6274      -5.6473       8.2747  1185.5
0.3040           2.6111      -5.6872       8.2983  1188.9
0.3050           2.5948      -5.6976       8.2924  1188.0
0.3060           2.5783      -5.6783       8.2566  1182.9
0.3070           2.5627      -5.6322       8.1948  1174.0
0.3080           2.5470      -5.5645       8.1115  1162.1
0.3090           2.5319      -5.4822       8.0141  1148.1
0.3100           2.5161      -5.3929       7.9090  1133.1
0.3110           2.5006      -5.3044       7.8050  1118.2
0.3120           2.4858      -5.2234       7.7092  1104.5
0.3130           2.4714      -5.1555       7.6268  1092.7
0.3140           2.4570      -5.1041       7.5611  1083.2
0.3150           2.4419      -5.0710       7.5130  1076.3
0.3160           2.4267      -5.0561       7.4828  1072.0
0.3170           2.4114      -5.0579       7.4693  1070.1
0.3180           2.3966      -5.0740       7.4706  1070.3
0.3190           2.3818      -5.1013       7.4831  1072.1
0.3200           2.3667      -5.1365       7.5032  1075.0
0.3210           2.3518      -5.1759       7.5277  1078.5
0.3220           2.3364      -5.2160       7.5524  1082.0
0.3230           2.3215      -5.2540       7.5755  1085.3
0.3240           2.3061      -5.2878       7.5939  1087.9
0.3250           2.2910      -5.3159       7.6069  1089.8
0.3260           2.2751      -5.3372       7.6123  1090.6
0.3270           2.2600      -5.3502       7.6102  1090.3
0.3280           2.2447      -5.3531       7.5978  1088.5
0.3290           2.2294      -5.3434       7.5729  1084.9
0.3300           2.2145      -5.3184       7.5329  1079.2
0.3310           2.1991      -5.2756       7.4747  1070.9
0.3320           2.1845      -5.2136       7.3980  1059.9
0.3330           2.1699      -5.1330       7.3029  1046.3
0.3340           2.1559      -5.0371       7.1930  1030.5
0.3350           2.1426      -4.9317       7.0743  1013.5
0.3360           2.1295      -4.8248       6.9544   996.3
0.3370           2.1167      -4.7255       6.8422   980.2
0.3380           2.1042      -4.6424       6.7466   966.6
0.3390           2.0914      -4.5831       6.6744   956.2
0.3400           2.0786      -4.5525       6.6311   950.0
0.3410           2.0653      -4.5532       6.6184   948.2
0.3420           2.0522      -4.5844       6.6367   950.8
